Frequency	dB	Unweighted
19.5	64.5	
19.8	64.5	
20.1	64.5	
20.3	64.7	
20.6	64.8	
20.9	65.0	
21.2	65.2	
21.6	65.4	
21.9	65.6	
22.2	65.8	
22.5	66.0	
22.8	66.3	
23.2	66.6	
23.5	66.8	
23.8	67.1	
24.2	67.3	
24.5	67.6	
24.9	67.8	
25.3	68.0	
25.6	68.2	
26	68.4	
26.4	68.5	
26.8	68.6	
27.2	68.6	
27.5	68.7	
28	68.9	
28.4	69.0	
28.8	69.3	
29.2	69.5	
29.6	69.8	
30	70.1	
30.5	70.4	
30.9	70.6	
31.4	70.9	
31.8	71.1	
32.3	71.3	
32.8	71.5	
33.2	71.7	
33.7	71.8	
34.2	72.0	
34.7	72.0	
35.2	72.1	
35.7	72.1	
36.2	72.1	
36.8	72.1	
37.3	72.1	
37.9	72.2	
38.4	72.3	
39	72.5	
39.5	72.8	
40.1	73.0	
40.7	73.2	
41.3	73.3	
41.9	73.4	
42.5	73.4	
43.1	73.5	
43.7	73.6	
44.4	73.8	
45	74.0	
45.7	74.2	
46.3	74.3	
47	74.3	
47.7	74.1	
48.4	73.8	
49.1	73.5	
49.8	73.4	
50.5	73.6	
51.3	73.9	
52	74.2	
52.8	74.4	
53.5	74.5	
54.3	74.5	
55.1	74.5	
55.9	74.5	
56.7	74.5	
57.5	74.5	
58.4	74.5	
59.2	74.5	
60.1	74.4	
61	74.6	
61.8	74.8	
62.7	75.0	
63.7	75.0	
64.6	75.0	
65.5	75.3	
66.5	75.5	
67.4	75.5	
68.4	75.4	
69.4	75.4	
70.4	75.6	
71.5	75.6	
72.5	75.5	
73.5	75.4	
74.6	75.4	
75.7	75.5	
76.8	75.6	
77.9	75.6	
79.1	75.6	
80.2	75.7	
81.4	75.6	
82.6	75.5	
83.8	75.5	
85	75.5	
86.2	75.7	
87.5	75.9	
88.7	76.1	
90	76.1	
91.3	76.0	
92.7	75.9	
94	75.7	
95.4	75.6	
96.8	75.5	
98.2	75.4	
99.6	75.4	
101	75.6	
103	75.9	
104	76.3	
106	77.0	
107	77.6	
109	77.7	
110	77.2	
112	76.5	
113	76.2	
115	76.1	
117	76.3	
118	76.5	
120	76.5	
122	76.4	
124	76.4	
125	76.5	
127	76.5	
129	76.6	
131	76.6	
133	76.5	
135	76.4	
137	76.4	
139	76.4	
141	76.3	
143	76.3	
145	76.2	
147	76.2	
149	76.1	
151	76.0	
154	75.9	
156	75.8	
158	75.8	
160	75.8	
163	75.7	
165	75.6	
168	75.5	
170	75.5	
172	75.5	
175	75.5	
177	75.5	
180	75.5	
183	75.4	
185	75.3	
188	75.2	
191	75.2	
194	75.3	
196	75.4	
199	75.3	
202	75.3	
205	75.3	
208	75.3	
211	75.4	
214	75.5	
217	75.4	
220	75.5	
224	75.5	
227	75.4	
230	75.5	
234	75.5	
237	75.5	
240	75.5	
244	75.5	
247	75.5	
251	75.4	
255	75.4	
258	75.4	
262	75.4	
266	75.4	
270	75.4	
274	75.3	
278	75.2	
282	75.1	
286	74.9	
290	74.8	
294	74.8	
298	74.9	
303	75.4	
307	75.6	
312	75.7	
316	75.7	
321	75.9	
325	76.0	
330	76.0	
335	76.0	
340	76.0	
345	76.1	
350	76.2	
355	76.2	
360	76.2	
365	76.2	
371	76.1	
376	76.1	
382	76.2	
387	76.3	
393	76.3	
398	76.3	
404	76.3	
410	76.3	
416	76.4	
422	76.4	
428	76.5	
434	76.5	
441	76.6	
447	76.6	
454	76.7	
460	76.7	
467	76.7	
474	76.8	
481	76.8	
488	76.9	
495	77.0	
502	76.8	
509	77.2	
517	76.8	
524	76.9	
532	77.6	
540	77.7	
547	76.9	
555	76.9	
563	77.4	
572	77.0	
580	77.2	
588	77.4	
597	77.5	
606	77.5	
614	77.6	
623	77.6	
632	77.5	
642	77.6	
651	77.3	
660	77.4	
670	77.6	
680	77.4	
690	77.4	
700	77.3	
710	77.2	
720	77.5	
731	77.6	
741	77.7	
752	78.0	
763	78.2	
774	78.2	
785	78.3	
797	78.4	
808	78.5	
820	78.8	
832	78.9	
844	79.0	
856	79.3	
869	79.5	
882	79.7	
894	79.9	
907	79.9	
921	79.9	
934	80.1	
948	80.1	
961	80.2	
975	80.3	
990	80.4	
1004	80.6	
1019	80.8	
1033	81.0	
1048	81.1	
1064	81.3	
1079	81.4	
1095	81.5	
1111	81.6	
1127	81.7	
1143	82.1	
1160	82.5	
1177	82.9	
1194	83.2	
1211	83.5	
1229	83.8	
1247	84.1	
1265	84.3	
1283	84.4	
1302	84.4	
1321	84.0	
1340	83.1	
1360	82.6	
1379	82.8	
1399	83.2	
1420	83.6	
1440	83.9	
1461	84.1	
1483	84.3	
1504	84.5	
1526	84.5	
1548	84.5	
1571	84.5	
1594	84.4	
1617	84.2	
1640	84.1	
1664	83.9	
1688	83.7	
1713	83.5	
1738	83.3	
1763	83.1	
1789	83.0	
1815	82.9	
1841	82.6	
1868	82.3	
1895	82.0	
1923	81.8	
1951	81.5	
1979	81.2	
2008	81.0	
2037	80.9	
2067	80.8	
2097	80.7	
2127	80.7	
2158	80.6	
2190	80.7	
2221	80.8	
2254	81.1	
2287	81.4	
2320	81.7	
2354	81.8	
2388	81.8	
2423	81.8	
2458	81.7	
2494	81.7	
2530	81.7	
2567	81.7	
2604	81.7	
2642	81.8	
2680	82.4	
2719	83.1	
2759	83.8	
2799	84.4	
2840	84.7	
2881	84.8	
2923	85.0	
2965	85.2	
3008	85.4	
3052	85.7	
3097	86.0	
3142	86.3	
3187	86.6	
3234	86.9	
3281	87.1	
3328	87.3	
3377	87.4	
3426	87.5	
3476	88.0	
3526	89.0	
3578	90.4	
3630	91.8	
3682	93.0	
3736	94.1	
3790	95.2	
3846	96.5	
3901	98.0	
3958	99.3	
4016	100.3	
4074	101.0	
4133	101.4	
4194	101.6	
4255	101.7	
4316	101.8	
4379	101.9	
4443	101.9	
4508	101.8	
4573	101.5	
4640	101.1	
4707	100.5	
4776	99.9	
4845	99.1	
4916	98.2	
4987	97.3	
5060	96.3	
5133	95.4	
5208	94.7	
5284	94.3	
5360	94.2	
5438	94.4	
5518	94.8	
5598	95.2	
5679	95.5	
5762	95.5	
5846	95.2	
5931	94.6	
6017	93.9	
6104	93.1	
6193	92.4	
6283	91.7	
6375	91.0	
6467	90.3	
6561	89.6	
6657	88.9	
6754	88.3	
6852	87.6	
6952	86.9	
7053	86.2	
7155	85.6	
7259	85.1	
7365	84.6	
7472	84.4	
7581	84.3	
7691	84.1	
7803	84.0	
7916	83.9	
8032	83.7	
8148	83.7	
8267	83.8	
8387	83.9	
8509	84.1	
8633	84.4	
8758	84.8	
8886	85.4	
9015	85.9	
9146	86.4	
9279	86.7	
9414	86.3	
9551	85.1	
9690	83.3	
9831	81.3	
9974	79.4	
10119	77.7	
10266	76.2	
10416	74.9	
10567	73.6	
10721	72.5	
10877	71.6	
11035	70.9	
11196	70.5	
11358	71.2	
11524	72.9	
11691	74.6	
11861	75.7	
12034	76.0	
12209	75.7	
12386	74.5	
12567	72.6	
12749	71.2	
12935	70.7	
13123	70.7	
13314	70.8	
13507	71.3	
13704	72.4	
13903	73.9	
14105	75.2	
14311	75.9	
14519	75.9	
14730	75.6	
14944	75.5	
15162	75.7	
15382	77.0	
15606	78.3	
15833	78.8	
16063	77.9	
16297	75.6	
16534	73.6	
16774	72.9	
17018	73.2	
17266	73.8	
17517	73.9	
17772	72.7	
18030	70.3	
18293	67.6	
18559	65.8	
18829	65.4	
19102	65.6	
19380	65.8	
20000	65.7	
overall dB	0.0 dB	
decay	Average	
averaging	No Smoothing	
source	Totally Made Up	
		
		
saved	--/-/--, --:-- AM	
peak	0.0Hz	