		
Frequency	dB	Unweighted
19.5	61.7
19.8	61.8
20.1	62.0
20.3	62.1
20.6	62.2
20.9	62.3
21.2	62.5
21.6	62.6
21.9	62.8
22.2	63.0
22.5	63.3
22.8	63.5
23.2	63.8
23.5	64.1
23.8	64.4
24.2	64.7
24.5	65.0
24.9	65.3
25.3	65.6
25.6	65.9
26	66.2
26.4	66.5
26.8	66.8
27.2	67.0
27.5	67.2
28	67.5
28.4	67.7
28.8	68.0
29.2	68.2
29.6	68.4
30	68.7
30.5	68.9
30.9	69.1
31.4	69.3
31.8	69.6
32.3	69.8
32.8	70.1
33.2	70.3
33.7	70.5
34.2	70.7
34.7	71.0
35.2	71.2
35.7	71.4
36.2	71.6
36.8	71.8
37.3	72.0
37.9	72.3
38.4	72.5
39	72.7
39.5	72.9
40.1	73.2
40.7	73.4
41.3	73.7
41.9	73.9
42.5	74.1
43.1	74.3
43.7	74.5
44.4	74.7
45	74.9
45.7	75.1
46.3	75.3
47	75.5
47.7	75.7
48.4	75.8
49.1	76.0
49.8	76.2
50.5	76.3
51.3	76.5
52	76.7
52.8	76.9
53.5	77.1
54.3	77.2
55.1	77.4
55.9	77.5
56.7	77.6
57.5	77.7
58.4	77.8
59.2	77.9
60.1	78.0
61	78.1
61.8	78.2
62.7	78.3
63.7	78.4
64.6	78.5
65.5	78.6
66.5	78.6
67.4	78.7
68.4	78.7
69.4	78.7
70.4	78.8
71.5	78.8
72.5	78.9
73.5	79.1
74.6	79.2
75.7	79.2
76.8	79.3
77.9	79.4
79.1	79.5
80.2	79.6
81.4	79.6
82.6	79.7
83.8	79.7
85	79.8
86.2	79.8
87.5	79.8
88.7	79.8
90	79.8
91.3	79.8
92.7	79.8
94	79.8
95.4	80.0
96.8	80.1
98.2	80.1
99.6	80.2
101	80.3
103	80.2
104	80.3
106	80.2
107	80.2
109	80.3
110	80.3
112	80.3
113	80.4
115	80.4
117	80.4
118	80.3
120	80.3
122	80.3
124	80.3
125	80.3
127	80.3
129	80.3
131	80.3
133	80.3
135	80.2
137	80.2
139	80.2
141	80.1
143	80.1
145	80.1
147	80.0
149	80.0
151	80.0
154	79.9
156	79.8
158	79.8
160	79.7
163	79.6
165	79.6
168	79.6
170	79.4
172	79.4
175	79.3
177	79.3
180	79.4
183	79.3
185	79.2
188	79.3
191	79.3
194	79.5
196	79.5
199	79.4
202	79.3
205	79.3
208	79.3
211	79.3
214	79.3
217	79.4
220	79.4
224	79.4
227	79.4
230	79.4
234	79.5
237	79.5
240	79.4
244	79.3
247	79.3
251	79.3
255	79.4
258	79.4
262	79.3
266	79.2
270	79.3
274	79.4
278	79.5
282	79.5
286	79.5
290	79.6
294	79.6
298	79.6
303	79.7
307	79.7
312	79.7
316	79.7
321	79.7
325	79.7
330	79.7
335	79.8
340	79.8
345	79.9
350	80.0
355	80.1
360	80.2
365	80.3
371	80.3
376	80.3
382	80.4
387	80.4
393	80.4
398	80.4
404	80.5
410	80.6
416	80.5
422	80.6
428	80.6
434	80.7
441	80.7
447	80.8
454	80.8
460	80.8
467	80.8
474	80.9
481	80.9
488	81.0
495	81.0
502	81.0
509	81.0
517	81.0
524	81.1
532	81.0
540	81.1
547	81.1
555	81.2
563	81.2
572	81.2
580	81.1
588	81.1
597	81.1
606	81.1
614	81.0
623	81.0
632	81.1
642	81.1
651	81.0
660	81.0
670	81.0
680	81.0
690	81.0
700	81.0
710	80.9
720	81.0
731	81.0
741	81.0
752	81.0
763	81.0
774	81.0
785	81.1
797	81.1
808	81.2
820	81.2
832	81.3
844	81.4
856	81.5
869	81.6
882	81.7
894	81.9
907	82.0
921	82.2
934	82.4
948	82.6
961	82.7
975	82.9
990	83.0
1004	83.2
1019	83.4
1033	83.6
1048	83.7
1064	83.8
1079	84.0
1095	84.1
1111	84.2
1127	84.2
1143	84.3
1160	84.4
1177	84.5
1194	84.7
1211	84.9
1229	85.1
1247	85.4
1265	85.6
1283	85.9
1302	86.1
1321	86.2
1340	86.3
1360	86.4
1379	86.5
1399	86.6
1420	86.7
1440	86.7
1461	86.8
1483	86.8
1504	86.7
1526	86.7
1548	86.6
1571	86.5
1594	86.4
1617	86.2
1640	86.1
1664	85.8
1688	85.6
1713	85.4
1738	85.1
1763	84.9
1789	84.7
1815	84.4
1841	84.2
1868	83.9
1895	83.6
1923	83.3
1951	82.9
1979	82.3
2008	81.9
2037	81.6
2067	81.6
2097	81.5
2127	81.6
2158	81.6
2190	81.6
2221	81.6
2254	81.6
2287	81.6
2320	81.5
2354	81.5
2388	81.5
2423	81.4
2458	81.3
2494	81.2
2530	81.1
2567	81.1
2604	81.1
2642	81.2
2680	81.3
2719	81.4
2759	81.4
2799	81.4
2840	81.4
2881	81.3
2923	81.2
2965	81.2
3008	81.1
3052	81.1
3097	81.1
3142	81.1
3187	81.1
3234	81.1
3281	81.2
3328	81.2
3377	81.4
3426	81.6
3476	81.9
3526	82.4
3578	83.0
3630	83.6
3682	84.4
3736	85.2
3790	86.1
3846	87.1
3901	88.0
3958	88.9
4016	89.7
4074	90.3
4133	90.8
4194	91.1
4255	91.5
4316	92.0
4379	92.7
4443	93.5
4508	94.4
4573	95.0
4640	95.4
4707	95.6
4776	95.5
4845	95.2
4916	95.0
4987	95.0
5060	95.0
5133	95.1
5208	95.4
5284	95.6
5360	95.9
5438	96.0
5518	96.0
5598	95.7
5679	95.1
5762	94.4
5846	93.6
5931	92.7
6017	91.8
6104	90.9
6193	90.3
6283	89.8
6375	89.3
6467	88.7
6561	88.1
6657	87.7
6754	87.4
6852	87.2
6952	86.9
7053	86.5
7155	86.0
7259	85.6
7365	85.2
7472	84.9
7581	84.6
7691	84.4
7803	84.2
7916	84.2
8032	84.3
8148	84.4
8267	84.5
8387	84.4
8509	84.4
8633	84.6
8758	84.9
8886	84.9
9015	84.6
9146	84.5
9279	84.7
9414	84.8
9551	84.5
9690	83.6
9831	82.4
9974	80.9
10119	79.3
10266	77.7
10416	76.3
10567	75.4
10721	74.9
10877	74.5
11035	74.0
11196	73.3
11358	72.2
11524	70.7
11691	69.2
11861	69.0
12034	71.4
12209	75.1
12386	78.7
12567	81.6
12749	82.7
12935	81.8
13123	80.3
13314	79.0
13507	78.1
13704	77.7
13903	77.7
14105	77.8
14311	78.0
14519	78.5
14730	79.3
14944	80.3
15162	81.2
15382	81.9
15606	82.3
15833	82.1
16063	81.6
16297	81.0
16534	80.2
16774	78.6
17018	76.3
17266	73.7
17517	71.9
17772	70.7
18030	70.3
18293	70.5
18559	70.6
18829	70.0
19102	69.1
19380	68.1
20000	67.0
overall dB	0.0 dB	
decay	Average	
averaging	No Smoothing	
source	Totally Made Up	
		
		
saved	--/-/--, --:-- AM	
peak	0.0Hz	