		
Frequency	dB	Unweighted
19.5	77.468
19.8	77.814
20.1	78.151
20.3	78.151
20.6	78.484
20.9	78.806
21.2	79.115
21.6	79.398
21.9	79.676
22.2	79.949
22.5	80.244
22.8	80.541
23.2	80.836
23.5	80.836
23.8	81.115
24.2	81.380
24.5	81.642
24.9	81.901
25.3	82.165
25.6	82.428
26	82.687
26.4	82.940
26.8	83.181
27.2	83.413
27.5	83.643
28	84.107
28.4	84.352
28.8	84.594
29.2	84.832
29.6	85.067
30	85.296
30.5	85.498
30.9	85.695
31.4	86.077
31.8	86.273
32.3	86.465
32.8	86.833
33.2	87.010
33.7	87.177
34.2	87.337
34.7	87.643
35.2	87.790
35.7	88.068
36.2	88.201
36.8	88.452
37.3	88.571
37.9	88.691
38.4	88.927
39	89.147
39.5	89.252
40.1	89.453
40.7	89.550
41.3	89.736
41.9	89.823
42.5	89.984
43.1	90.106
43.7	90.159
44.4	90.253
45	90.334
45.7	90.415
46.3	90.453
47	90.557
47.7	90.591
48.4	90.663
49.1	90.725
49.8	90.776
50.5	90.819
51.3	90.857
52	90.890
52.8	90.921
53.5	90.949
54.3	90.973
55.1	91.006
55.9	91.030
56.7	91.051
57.5	91.079
58.4	91.114
59.2	91.173
60.1	91.216
61	91.268
61.8	91.347
62.7	91.400
63.7	91.498
64.6	91.570
65.5	91.677
66.5	91.779
67.4	91.833
68.4	91.894
69.4	91.945
70.4	91.974
71.5	92.010
72.5	92.034
73.5	92.047
74.6	92.052
75.7	92.054
76.8	92.055
77.9	92.059
79.1	92.061
80.2	92.059
81.4	92.072
82.6	92.090
83.8	92.100
85	92.105
86.2	92.085
87.5	92.052
88.7	92.026
90	91.989
91.3	91.967
92.7	91.933
94	91.896
95.4	91.855
96.8	91.833
98.2	91.771
99.6	91.713
101	91.643
103	91.545
104	91.482
106	91.372
107	91.310
109	91.180
110	91.114
112	91.009
113	90.939
115	90.813
117	90.657
118	90.609
120	90.474
122	90.367
124	90.241
125	90.200
127	90.072
129	89.957
131	89.815
133	89.700
135	89.558
137	89.440
139	89.302
141	89.187
143	89.051
145	88.936
147	88.822
149	88.686
151	88.571
154	88.390
156	88.252
158	88.138
160	88.009
163	87.838
165	87.710
168	87.548
170	87.452
172	87.340
175	87.194
177	87.109
180	86.960
183	86.835
185	86.758
188	86.620
191	86.520
194	86.431
196	86.380
199	86.307
202	86.221
205	86.149
208	86.073
211	85.997
214	85.940
217	85.896
220	85.864
224	85.823
227	85.787
230	85.759
234	85.734
237	85.726
240	85.732
244	85.734
247	85.737
251	85.737
255	85.733
258	85.737
262	85.755
266	85.788
270	85.841
274	85.895
278	85.954
282	86.010
286	86.061
290	86.113
294	86.165
298	86.229
303	86.279
307	86.341
312	86.419
316	86.473
321	86.529
325	86.582
330	86.632
335	86.677
340	86.726
345	86.772
350	86.825
355	86.869
360	86.889
365	86.900
371	86.891
376	86.871
382	86.835
387	86.792
393	86.726
398	86.651
404	86.561
410	86.448
416	86.326
422	86.202
428	86.055
434	85.915
441	85.739
447	85.575
454	85.380
460	85.208
467	85.003
474	84.792
481	84.616
488	84.431
495	84.267
502	84.094
509	83.926
517	83.749
524	83.607
532	83.453
540	83.315
547	83.207
555	83.090
563	82.991
572	82.888
580	82.810
588	82.740
597	82.679
606	82.638
614	82.624
623	82.621
632	82.631
642	82.639
651	82.659
660	82.688
670	82.740
680	82.819
690	82.910
700	83.016
710	83.138
720	83.262
731	83.408
741	83.560
752	83.736
763	83.902
774	84.056
785	84.211
797	84.339
808	84.430
820	84.487
832	84.496
844	84.462
856	84.414
869	84.327
882	84.224
894	84.118
907	83.958
921	83.757
934	83.555
948	83.331
961	83.152
975	82.972
990	82.795
1004	82.659
1019	82.525
1033	82.411
1048	82.282
1064	82.124
1079	81.965
1095	81.766
1111	81.546
1127	81.316
1143	81.083
1160	80.855
1177	80.632
1194	80.433
1211	80.264
1229	80.092
1247	79.928
1265	79.790
1283	79.647
1302	79.516
1321	79.410
1340	79.328
1360	79.258
1379	79.220
1399	79.193
1420	79.211
1440	79.246
1461	79.312
1483	79.398
1504	79.487
1526	79.582
1548	79.691
1571	79.811
1594	79.931
1617	80.067
1640	80.197
1664	80.340
1688	80.493
1713	80.657
1738	80.809
1763	80.960
1789	81.115
1815	81.283
1841	81.466
1868	81.646
1895	81.822
1923	81.928
1951	81.989
1979	82.036
2008	82.181
2037	82.491
2067	82.830
2097	83.188
2127	83.589
2158	84.030
2190	84.505
2221	84.912
2254	85.246
2287	85.476
2320	85.664
2354	85.878
2388	86.155
2423	86.484
2458	86.831
2494	87.167
2530	87.440
2567	87.632
2604	87.717
2642	87.682
2680	87.600
2719	87.506
2759	87.429
2799	87.377
2840	87.358
2881	87.380
2923	87.452
2965	87.570
3008	87.714
3052	87.860
3097	87.953
3142	87.986
3187	87.923
3234	87.783
3281	87.582
3328	87.345
3377	87.084
3426	86.842
3476	86.632
3526	86.484
3578	86.434
3630	86.527
3682	86.771
3736	87.153
3790	87.604
3846	88.132
3901	88.737
3958	89.546
4016	90.706
4074	92.310
4133	94.039
4194	95.455
4255	96.413
4316	96.693
4379	96.269
4443	95.551
4508	94.801
4573	94.153
4640	93.600
4707	93.187
4776	92.859
4845	92.625
4916	92.462
4987	92.382
5060	92.366
5133	92.408
5208	92.494
5284	92.595
5360	92.692
5438	92.773
5518	92.831
5598	92.879
5679	92.887
5762	92.769
5846	92.533
5931	92.246
6017	91.945
6104	91.668
6193	91.387
6283	91.087
6375	90.738
6467	90.406
6561	90.082
6657	89.666
6754	89.338
6852	89.096
6952	88.826
7053	88.554
7155	88.171
7259	87.697
7365	87.199
7472	86.724
7581	86.302
7691	85.982
7803	85.703
7916	85.428
8032	85.109
8148	84.684
8267	84.195
8387	83.748
8509	83.410
8633	83.177
8758	83.061
8886	83.049
9015	83.135
9146	83.262
9279	83.359
9414	83.310
9551	82.958
9690	82.225
9831	81.259
9974	80.303
10119	79.521
10266	78.971
10416	78.632
10567	78.503
10721	78.587
10877	78.742
11035	78.835
11196	79.005
11358	79.306
11524	79.653
11691	79.890
11861	80.020
12034	80.079
12209	80.019
12386	79.814
12567	79.536
12749	79.165
12935	78.685
13123	78.096
13314	77.527
13507	77.005
13704	76.561
13903	76.272
14105	76.163
14311	76.316
14519	76.851
14730	77.608
14944	78.375
15162	78.987
15382	79.405
15606	79.820
15833	80.189
16063	80.394
16297	80.383
16534	79.841
16774	78.892
17018	78.031
17266	77.588
17517	77.316
17772	76.715
18030	75.881
18293	74.786
18559	72.878
18829	69.775
19102	66.288
19380	63.225
20000	59.131
overall dB	0.0 dB	
decay	Average	
averaging	No Smoothing	
source	Totally Made Up	
		
		
saved	--/-/--, --:-- AM	
peak	0.0Hz	